Machine Module SVA1032X,,
Trace Name,Trace A,
Meas Type,S11,
Start Frequency,1.00E+05,
Stop Frequency,3.20E+09,
Format,Polar,Real/Imag
IFBW,1.00E+04,
,,
,,
,,
,,
Trace Data,,
Frequency,Formatted Data,
1.00E+05,1.05E+00,-8.08E-03
4.37E+06,1.06E+00,-6.39E-02
8.63E+06,1.02E+00,-1.11E-01
1.29E+07,9.90E-01,-1.50E-01
1.72E+07,9.65E-01,-2.02E-01
2.14E+07,9.60E-01,-2.39E-01
2.57E+07,9.51E-01,-2.91E-01
3.00E+07,9.32E-01,-3.36E-01
3.42E+07,9.16E-01,-3.79E-01
3.85E+07,8.94E-01,-4.27E-01
4.28E+07,8.72E-01,-4.68E-01
4.70E+07,8.43E-01,-5.10E-01
5.13E+07,8.17E-01,-5.51E-01
5.56E+07,7.94E-01,-5.89E-01
5.98E+07,7.44E-01,-6.35E-01
6.41E+07,7.17E-01,-6.60E-01
6.84E+07,6.94E-01,-7.05E-01
7.26E+07,6.53E-01,-7.43E-01
7.69E+07,6.11E-01,-7.71E-01
8.12E+07,5.59E-01,-8.09E-01
8.54E+07,5.13E-01,-8.27E-01
8.97E+07,4.70E-01,-8.50E-01
9.40E+07,4.22E-01,-8.68E-01
9.82E+07,3.69E-01,-8.88E-01
1.02E+08,3.01E-01,-9.00E-01
1.07E+08,2.54E-01,-9.08E-01
1.11E+08,2.11E-01,-9.16E-01
1.15E+08,1.39E-01,-9.32E-01
1.20E+08,6.03E-02,-9.33E-01
1.24E+08,-2.19E-02,-9.16E-01
1.28E+08,-1.03E-01,-8.79E-01
1.32E+08,-1.70E-01,-8.12E-01
1.37E+08,-2.46E-01,-7.28E-01
1.41E+08,-2.26E-01,-5.42E-01
1.45E+08,-7.66E-02,-4.19E-01
1.49E+08,1.28E-01,-5.00E-01
1.54E+08,1.64E-01,-6.58E-01
1.58E+08,1.07E-01,-7.70E-01
1.62E+08,1.78E-02,-8.21E-01
1.66E+08,-6.73E-02,-8.42E-01
1.71E+08,-1.19E-01,-8.35E-01
1.75E+08,-1.68E-01,-8.44E-01
1.79E+08,-2.26E-01,-8.48E-01
1.84E+08,-2.87E-01,-8.53E-01
1.88E+08,-3.50E-01,-8.41E-01
1.92E+08,-3.98E-01,-8.21E-01
1.96E+08,-4.53E-01,-7.95E-01
2.01E+08,-4.96E-01,-7.76E-01
2.05E+08,-5.44E-01,-7.45E-01
2.09E+08,-5.85E-01,-7.09E-01
2.13E+08,-6.26E-01,-6.76E-01
2.18E+08,-6.76E-01,-6.35E-01
2.22E+08,-7.09E-01,-6.03E-01
2.26E+08,-7.37E-01,-5.54E-01
2.30E+08,-7.71E-01,-5.21E-01
2.35E+08,-7.96E-01,-4.74E-01
2.39E+08,-8.19E-01,-4.34E-01
2.43E+08,-8.46E-01,-3.88E-01
2.48E+08,-8.66E-01,-3.37E-01
2.52E+08,-8.86E-01,-2.86E-01
2.56E+08,-8.99E-01,-2.36E-01
2.60E+08,-9.06E-01,-1.97E-01
2.65E+08,-9.12E-01,-1.51E-01
2.69E+08,-9.22E-01,-8.69E-02
2.73E+08,-9.30E-01,5.75E-03
2.77E+08,-9.28E-01,-6.53E-02
2.82E+08,-9.33E-01,3.78E-02
2.86E+08,-9.28E-01,1.03E-01
2.90E+08,-9.24E-01,1.55E-01
2.94E+08,-9.16E-01,2.12E-01
2.99E+08,-9.01E-01,2.65E-01
3.03E+08,-8.85E-01,3.21E-01
3.07E+08,-8.71E-01,3.64E-01
3.12E+08,-8.39E-01,4.17E-01
3.16E+08,-8.15E-01,4.69E-01
3.20E+08,-7.87E-01,5.18E-01
3.24E+08,-7.56E-01,5.58E-01
3.29E+08,-7.22E-01,6.01E-01
3.33E+08,-6.83E-01,6.43E-01
3.37E+08,-6.34E-01,6.78E-01
3.41E+08,-5.98E-01,7.13E-01
3.46E+08,-5.47E-01,7.43E-01
3.50E+08,-5.06E-01,7.65E-01
3.54E+08,-4.50E-01,7.91E-01
3.58E+08,-4.06E-01,8.14E-01
3.63E+08,-3.55E-01,8.34E-01
3.67E+08,-3.10E-01,8.48E-01
3.71E+08,-2.55E-01,8.66E-01
3.76E+08,-2.00E-01,8.73E-01
3.80E+08,-1.51E-01,8.80E-01
3.84E+08,-8.78E-02,8.79E-01
3.88E+08,-3.18E-02,8.77E-01
3.93E+08,2.69E-02,8.69E-01
3.97E+08,7.25E-02,8.47E-01
4.01E+08,9.91E-02,8.38E-01
4.05E+08,1.49E-01,8.36E-01
4.10E+08,2.10E-01,8.24E-01
4.14E+08,2.73E-01,7.97E-01
4.18E+08,3.35E-01,7.60E-01
4.22E+08,3.83E-01,7.20E-01
4.27E+08,4.25E-01,6.66E-01
4.31E+08,4.60E-01,6.07E-01
4.35E+08,4.74E-01,5.47E-01
4.40E+08,4.74E-01,4.83E-01
4.44E+08,4.58E-01,4.24E-01
4.48E+08,4.28E-01,3.67E-01
4.52E+08,3.89E-01,3.27E-01
4.57E+08,3.46E-01,3.04E-01
4.61E+08,2.99E-01,2.97E-01
4.65E+08,2.53E-01,3.21E-01
4.69E+08,2.42E-01,3.60E-01
4.74E+08,2.37E-01,3.87E-01
4.78E+08,2.36E-01,4.21E-01
4.82E+08,2.52E-01,4.48E-01
4.86E+08,2.72E-01,4.69E-01
4.91E+08,2.97E-01,4.95E-01
4.95E+08,3.32E-01,5.14E-01
4.99E+08,3.71E-01,5.26E-01
5.04E+08,4.09E-01,5.31E-01
5.08E+08,4.66E-01,5.38E-01
5.12E+08,5.11E-01,5.39E-01
5.16E+08,5.65E-01,5.19E-01
5.21E+08,6.15E-01,5.02E-01
5.25E+08,6.67E-01,4.68E-01
5.29E+08,6.98E-01,4.33E-01
5.33E+08,7.39E-01,3.89E-01
5.38E+08,7.68E-01,3.48E-01
5.42E+08,7.90E-01,3.03E-01
5.46E+08,8.19E-01,2.58E-01
5.50E+08,8.36E-01,2.09E-01
5.55E+08,8.45E-01,1.67E-01
5.59E+08,8.55E-01,1.15E-01
5.63E+08,8.66E-01,6.59E-02
5.68E+08,8.70E-01,2.01E-02
5.72E+08,8.70E-01,-3.17E-02
5.76E+08,8.70E-01,-7.86E-02
5.80E+08,8.64E-01,-1.25E-01
5.85E+08,8.60E-01,-1.71E-01
5.89E+08,8.48E-01,-2.13E-01
5.93E+08,8.35E-01,-2.57E-01
5.97E+08,8.12E-01,-3.05E-01
6.02E+08,7.98E-01,-3.53E-01
6.06E+08,7.81E-01,-3.94E-01
6.10E+08,7.54E-01,-4.29E-01
6.14E+08,7.29E-01,-4.65E-01
6.19E+08,7.06E-01,-5.03E-01
6.23E+08,6.67E-01,-5.42E-01
6.27E+08,6.47E-01,-5.56E-01
6.32E+08,6.25E-01,-6.03E-01
6.36E+08,5.97E-01,-6.40E-01
6.40E+08,5.56E-01,-6.76E-01
6.44E+08,5.15E-01,-7.04E-01
6.49E+08,4.79E-01,-7.30E-01
6.53E+08,4.24E-01,-7.54E-01
6.57E+08,3.73E-01,-7.76E-01
6.61E+08,3.30E-01,-7.91E-01
6.66E+08,2.80E-01,-8.06E-01
6.70E+08,2.36E-01,-8.15E-01
6.74E+08,1.92E-01,-8.27E-01
6.78E+08,1.42E-01,-8.35E-01
6.83E+08,8.59E-02,-8.39E-01
6.87E+08,4.04E-02,-8.41E-01
6.91E+08,-1.81E-02,-8.41E-01
6.96E+08,-7.30E-02,-8.36E-01
7.00E+08,-1.26E-01,-8.27E-01
7.04E+08,-1.83E-01,-8.11E-01
7.08E+08,-2.32E-01,-7.92E-01
7.13E+08,-2.84E-01,-7.66E-01
7.17E+08,-3.43E-01,-7.40E-01
7.21E+08,-3.82E-01,-7.08E-01
7.25E+08,-4.31E-01,-6.62E-01
7.30E+08,-4.75E-01,-6.25E-01
7.34E+08,-5.06E-01,-5.74E-01
7.38E+08,-5.50E-01,-5.28E-01
7.42E+08,-5.74E-01,-4.75E-01
7.47E+08,-6.03E-01,-4.20E-01
7.51E+08,-6.25E-01,-3.60E-01
7.55E+08,-6.43E-01,-2.99E-01
7.60E+08,-6.54E-01,-2.35E-01
7.64E+08,-6.49E-01,-1.66E-01
7.68E+08,-6.48E-01,-9.89E-02
7.72E+08,-6.34E-01,-3.93E-02
7.77E+08,-6.14E-01,2.28E-02
7.81E+08,-5.91E-01,7.53E-02
7.85E+08,-5.54E-01,1.36E-01
7.89E+08,-5.16E-01,1.86E-01
7.94E+08,-4.71E-01,2.30E-01
7.98E+08,-4.20E-01,2.68E-01
8.02E+08,-3.64E-01,2.99E-01
8.06E+08,-2.88E-01,3.39E-01
8.11E+08,-2.73E-01,3.19E-01
8.15E+08,-1.85E-01,3.40E-01
8.19E+08,-1.10E-01,3.46E-01
8.24E+08,-3.59E-02,3.32E-01
8.28E+08,2.60E-02,3.10E-01
8.32E+08,8.95E-02,2.69E-01
8.36E+08,1.30E-01,2.13E-01
8.41E+08,1.77E-01,1.50E-01
8.45E+08,2.00E-01,8.24E-02
8.49E+08,2.04E-01,1.14E-02
8.53E+08,1.94E-01,-5.64E-02
8.58E+08,1.78E-01,-1.12E-01
8.62E+08,1.45E-01,-1.59E-01
8.66E+08,1.12E-01,-2.00E-01
8.70E+08,7.75E-02,-2.38E-01
8.75E+08,4.18E-02,-2.62E-01
8.79E+08,-3.09E-03,-2.85E-01
8.83E+08,-5.14E-02,-3.02E-01
8.88E+08,-9.65E-02,-3.13E-01
8.92E+08,-1.47E-01,-3.16E-01
8.96E+08,-1.92E-01,-3.13E-01
9.00E+08,-2.33E-01,-3.03E-01
9.05E+08,-2.77E-01,-2.91E-01
9.09E+08,-3.18E-01,-2.68E-01
9.13E+08,-3.55E-01,-2.42E-01
9.17E+08,-3.85E-01,-2.12E-01
9.22E+08,-4.14E-01,-1.82E-01
9.26E+08,-4.35E-01,-1.56E-01
9.30E+08,-4.55E-01,-1.18E-01
9.34E+08,-4.76E-01,-7.38E-02
9.39E+08,-4.96E-01,-4.50E-02
9.43E+08,-5.03E-01,-6.06E-03
9.47E+08,-5.12E-01,3.52E-02
9.52E+08,-5.09E-01,7.45E-02
9.56E+08,-5.08E-01,1.09E-01
9.60E+08,-5.15E-01,1.48E-01
9.64E+08,-5.06E-01,1.78E-01
9.69E+08,-5.05E-01,2.19E-01
9.73E+08,-4.91E-01,2.54E-01
9.77E+08,-4.83E-01,2.93E-01
9.81E+08,-4.68E-01,3.20E-01
9.86E+08,-4.49E-01,3.55E-01
9.90E+08,-4.26E-01,3.87E-01
9.94E+08,-3.96E-01,4.21E-01
9.98E+08,-3.74E-01,4.46E-01
1.00E+09,-3.52E-01,4.75E-01
1.01E+09,-3.23E-01,5.01E-01
1.01E+09,-2.93E-01,5.26E-01
1.02E+09,-2.67E-01,5.44E-01
1.02E+09,-2.39E-01,5.69E-01
1.02E+09,-2.05E-01,5.77E-01
1.03E+09,-1.68E-01,5.91E-01
1.03E+09,-1.34E-01,6.06E-01
1.04E+09,-9.46E-02,6.13E-01
1.04E+09,-5.40E-02,6.20E-01
1.05E+09,-1.54E-02,6.18E-01
1.05E+09,1.77E-03,6.25E-01
1.05E+09,4.37E-02,6.22E-01
1.06E+09,8.46E-02,6.20E-01
1.06E+09,1.15E-01,6.17E-01
1.07E+09,1.52E-01,6.10E-01
1.07E+09,1.83E-01,6.05E-01
1.08E+09,2.26E-01,5.95E-01
1.08E+09,2.54E-01,5.78E-01
1.08E+09,2.94E-01,5.64E-01
1.09E+09,3.19E-01,5.46E-01
1.09E+09,3.50E-01,5.28E-01
1.10E+09,3.63E-01,4.86E-01
1.10E+09,3.92E-01,4.65E-01
1.11E+09,4.05E-01,4.47E-01
1.11E+09,4.17E-01,4.22E-01
1.11E+09,4.32E-01,4.08E-01
1.12E+09,4.47E-01,3.84E-01
1.12E+09,4.58E-01,3.60E-01
1.13E+09,4.71E-01,3.32E-01
1.13E+09,4.77E-01,3.08E-01
1.13E+09,4.88E-01,2.89E-01
1.14E+09,4.98E-01,2.61E-01
1.14E+09,5.10E-01,2.45E-01
1.15E+09,5.18E-01,2.22E-01
1.15E+09,5.23E-01,2.01E-01
1.16E+09,5.27E-01,1.85E-01
1.16E+09,5.36E-01,1.67E-01
1.16E+09,5.41E-01,1.51E-01
1.17E+09,5.46E-01,1.26E-01
1.17E+09,5.62E-01,1.07E-01
1.18E+09,5.63E-01,8.78E-02
1.18E+09,5.73E-01,5.73E-02
1.19E+09,5.78E-01,2.85E-02
1.19E+09,5.82E-01,-3.53E-04
1.19E+09,5.70E-01,-1.73E-02
1.20E+09,5.75E-01,-3.89E-02
1.20E+09,5.64E-01,-6.54E-02
1.21E+09,5.57E-01,-8.29E-02
1.21E+09,5.55E-01,-1.14E-01
1.22E+09,5.50E-01,-1.28E-01
1.22E+09,5.45E-01,-1.52E-01
1.22E+09,5.34E-01,-1.73E-01
1.23E+09,5.29E-01,-1.93E-01
1.23E+09,5.20E-01,-2.17E-01
1.24E+09,5.10E-01,-2.37E-01
1.24E+09,4.96E-01,-2.50E-01
1.25E+09,4.81E-01,-2.73E-01
1.25E+09,4.73E-01,-2.94E-01
1.25E+09,4.62E-01,-3.11E-01
1.26E+09,4.52E-01,-3.27E-01
1.26E+09,4.39E-01,-3.44E-01
1.27E+09,4.26E-01,-3.56E-01
1.27E+09,4.08E-01,-3.78E-01
1.28E+09,3.90E-01,-3.92E-01
1.28E+09,3.74E-01,-4.07E-01
1.28E+09,3.64E-01,-4.24E-01
1.29E+09,3.42E-01,-4.35E-01
1.29E+09,3.20E-01,-4.52E-01
1.30E+09,3.05E-01,-4.59E-01
1.30E+09,2.79E-01,-4.72E-01
1.31E+09,2.55E-01,-4.86E-01
1.31E+09,2.34E-01,-4.95E-01
1.31E+09,2.13E-01,-4.98E-01
1.32E+09,1.87E-01,-5.11E-01
1.32E+09,1.71E-01,-5.08E-01
1.33E+09,1.45E-01,-5.18E-01
1.33E+09,1.23E-01,-5.30E-01
1.34E+09,9.70E-02,-5.31E-01
1.34E+09,7.45E-02,-5.32E-01
1.34E+09,5.87E-02,-5.34E-01
1.35E+09,3.64E-02,-5.40E-01
1.35E+09,-2.61E-04,-5.37E-01
1.36E+09,-4.39E-02,-5.39E-01
1.36E+09,2.64E-03,-5.46E-01
1.37E+09,-5.45E-02,-5.34E-01
1.37E+09,-8.34E-02,-5.31E-01
1.37E+09,-1.12E-01,-5.22E-01
1.38E+09,-1.39E-01,-5.11E-01
1.38E+09,-1.65E-01,-5.06E-01
1.39E+09,-1.79E-01,-5.00E-01
1.39E+09,-1.96E-01,-4.89E-01
1.40E+09,-2.17E-01,-4.77E-01
1.40E+09,-2.41E-01,-4.64E-01
1.40E+09,-2.66E-01,-4.54E-01
1.41E+09,-2.75E-01,-4.42E-01
1.41E+09,-2.98E-01,-4.31E-01
1.42E+09,-3.24E-01,-4.11E-01
1.42E+09,-3.40E-01,-3.99E-01
1.43E+09,-3.56E-01,-3.76E-01
1.43E+09,-3.77E-01,-3.57E-01
1.43E+09,-3.92E-01,-3.40E-01
1.44E+09,-4.02E-01,-3.13E-01
1.44E+09,-4.18E-01,-2.89E-01
1.45E+09,-4.28E-01,-2.65E-01
1.45E+09,-4.38E-01,-2.43E-01
1.45E+09,-4.51E-01,-2.20E-01
1.46E+09,-4.57E-01,-1.99E-01
1.46E+09,-4.61E-01,-1.82E-01
1.47E+09,-4.60E-01,-1.60E-01
1.47E+09,-4.78E-01,-1.39E-01
1.48E+09,-4.79E-01,-1.09E-01
1.48E+09,-4.82E-01,-9.16E-02
1.48E+09,-4.90E-01,-6.36E-02
1.49E+09,-4.81E-01,-5.01E-02
1.49E+09,-4.82E-01,-2.89E-02
1.50E+09,-4.77E-01,-3.74E-03
1.50E+09,-4.84E-01,1.25E-02
1.51E+09,-4.77E-01,4.62E-02
1.51E+09,-4.67E-01,6.13E-02
1.51E+09,-4.66E-01,8.93E-02
1.52E+09,-4.53E-01,1.03E-01
1.52E+09,-4.41E-01,1.23E-01
1.53E+09,-4.38E-01,1.37E-01
1.53E+09,-4.26E-01,1.51E-01
1.54E+09,-4.10E-01,1.77E-01
1.54E+09,-4.11E-01,1.85E-01
1.54E+09,-4.02E-01,2.06E-01
1.55E+09,-3.95E-01,2.15E-01
1.55E+09,-3.88E-01,2.29E-01
1.56E+09,-3.76E-01,2.48E-01
1.56E+09,-3.71E-01,2.70E-01
1.57E+09,-3.53E-01,2.86E-01
1.57E+09,-3.45E-01,3.00E-01
1.57E+09,-3.34E-01,3.21E-01
1.58E+09,-3.26E-01,3.33E-01
1.58E+09,-3.21E-01,3.53E-01
1.59E+09,-3.06E-01,3.63E-01
1.59E+09,-2.99E-01,3.78E-01
1.60E+09,-2.83E-01,3.91E-01
1.60E+09,-2.61E-01,4.03E-01
1.60E+09,-2.43E-01,4.24E-01
1.61E+09,-2.19E-01,4.36E-01
1.61E+09,-1.91E-01,4.49E-01
1.62E+09,-1.77E-01,4.60E-01
1.62E+09,-1.50E-01,4.70E-01
1.63E+09,-1.25E-01,4.72E-01
1.63E+09,-1.05E-01,4.84E-01
1.63E+09,-9.38E-02,4.86E-01
1.64E+09,-6.82E-02,4.97E-01
1.64E+09,-4.41E-02,4.98E-01
1.65E+09,-2.67E-02,5.01E-01
1.65E+09,4.45E-03,5.09E-01
1.66E+09,2.48E-02,5.08E-01
1.66E+09,5.14E-02,5.10E-01
1.66E+09,6.69E-02,5.08E-01
1.67E+09,9.16E-02,5.15E-01
1.67E+09,1.22E-01,5.14E-01
1.68E+09,1.34E-01,4.97E-01
1.68E+09,1.57E-01,4.94E-01
1.69E+09,1.75E-01,4.94E-01
1.69E+09,2.09E-01,4.93E-01
1.69E+09,2.31E-01,4.90E-01
1.70E+09,2.60E-01,4.90E-01
1.70E+09,2.84E-01,4.86E-01
1.71E+09,3.05E-01,4.81E-01
1.71E+09,3.25E-01,4.70E-01
1.72E+09,3.47E-01,4.49E-01
1.72E+09,3.68E-01,4.30E-01
1.72E+09,3.86E-01,4.09E-01
1.73E+09,4.11E-01,3.97E-01
1.73E+09,4.23E-01,3.84E-01
1.74E+09,4.42E-01,3.66E-01
1.74E+09,4.56E-01,3.47E-01
1.75E+09,4.73E-01,3.30E-01
1.75E+09,4.89E-01,3.11E-01
1.75E+09,5.04E-01,2.83E-01
1.76E+09,5.24E-01,2.62E-01
1.76E+09,5.33E-01,2.45E-01
1.77E+09,5.51E-01,2.16E-01
1.77E+09,5.60E-01,2.02E-01
1.77E+09,5.69E-01,1.75E-01
1.78E+09,5.81E-01,1.40E-01
1.78E+09,5.90E-01,1.25E-01
1.79E+09,5.94E-01,1.01E-01
1.79E+09,5.93E-01,5.91E-02
1.80E+09,5.99E-01,3.73E-02
1.80E+09,5.98E-01,1.15E-02
1.80E+09,5.98E-01,-1.98E-02
1.81E+09,5.99E-01,-4.84E-02
1.81E+09,5.96E-01,-7.85E-02
1.82E+09,6.01E-01,-1.11E-01
1.82E+09,5.94E-01,-1.37E-01
1.83E+09,5.93E-01,-1.60E-01
1.83E+09,5.83E-01,-1.82E-01
1.83E+09,5.77E-01,-2.12E-01
1.84E+09,5.69E-01,-2.35E-01
1.84E+09,5.51E-01,-2.65E-01
1.85E+09,5.48E-01,-2.84E-01
1.85E+09,5.28E-01,-3.12E-01
1.86E+09,5.18E-01,-3.42E-01
1.86E+09,4.94E-01,-3.61E-01
1.86E+09,4.81E-01,-3.83E-01
1.87E+09,4.59E-01,-4.06E-01
1.87E+09,4.40E-01,-4.30E-01
1.88E+09,4.14E-01,-4.51E-01
1.88E+09,3.84E-01,-4.71E-01
1.89E+09,3.61E-01,-4.87E-01
1.89E+09,3.13E-01,-5.17E-01
1.89E+09,3.57E-01,-4.89E-01
1.90E+09,3.08E-01,-5.17E-01
1.90E+09,2.57E-01,-5.51E-01
1.91E+09,2.33E-01,-5.54E-01
1.91E+09,2.04E-01,-5.56E-01
1.92E+09,1.77E-01,-5.66E-01
1.92E+09,1.49E-01,-5.69E-01
1.92E+09,1.25E-01,-5.67E-01
1.93E+09,9.06E-02,-5.70E-01
1.93E+09,6.56E-02,-5.89E-01
1.94E+09,3.68E-02,-5.91E-01
1.94E+09,8.06E-03,-5.90E-01
1.95E+09,-2.37E-02,-5.77E-01
1.95E+09,-4.47E-02,-5.82E-01
1.95E+09,-6.33E-02,-5.76E-01
1.96E+09,-9.66E-02,-5.75E-01
1.96E+09,-1.19E-01,-5.68E-01
1.97E+09,-1.44E-01,-5.61E-01
1.97E+09,-1.75E-01,-5.45E-01
1.98E+09,-1.87E-01,-5.42E-01
1.98E+09,-2.07E-01,-5.27E-01
1.98E+09,-2.25E-01,-5.12E-01
1.99E+09,-2.53E-01,-5.02E-01
1.99E+09,-2.78E-01,-4.84E-01
2.00E+09,-2.97E-01,-4.68E-01
2.00E+09,-3.10E-01,-4.59E-01
2.01E+09,-3.30E-01,-4.42E-01
2.01E+09,-3.47E-01,-4.27E-01
2.01E+09,-3.62E-01,-4.16E-01
2.02E+09,-3.79E-01,-3.91E-01
2.02E+09,-3.94E-01,-3.76E-01
2.03E+09,-4.05E-01,-3.53E-01
2.03E+09,-4.16E-01,-3.28E-01
2.04E+09,-4.28E-01,-3.15E-01
2.04E+09,-4.43E-01,-2.94E-01
2.04E+09,-4.50E-01,-2.80E-01
2.05E+09,-4.64E-01,-2.53E-01
2.05E+09,-4.83E-01,-2.34E-01
2.06E+09,-4.80E-01,-2.11E-01
2.06E+09,-4.90E-01,-1.94E-01
2.07E+09,-4.92E-01,-1.74E-01
2.07E+09,-4.98E-01,-1.67E-01
2.07E+09,-5.12E-01,-1.37E-01
2.08E+09,-5.19E-01,-1.24E-01
2.08E+09,-5.28E-01,-9.61E-02
2.09E+09,-5.21E-01,-7.57E-02
2.09E+09,-5.28E-01,-4.06E-02
2.09E+09,-5.33E-01,-1.16E-02
2.10E+09,-5.30E-01,1.86E-03
2.10E+09,-5.36E-01,3.22E-02
2.11E+09,-5.21E-01,5.26E-02
2.11E+09,-5.42E-01,8.51E-02
2.12E+09,-5.35E-01,1.10E-01
2.12E+09,-5.26E-01,1.42E-01
2.12E+09,-5.32E-01,1.73E-01
2.13E+09,-5.20E-01,2.03E-01
2.13E+09,-5.01E-01,2.22E-01
2.14E+09,-4.95E-01,2.53E-01
2.14E+09,-4.85E-01,2.84E-01
2.15E+09,-4.73E-01,3.07E-01
2.15E+09,-4.59E-01,3.33E-01
2.15E+09,-4.45E-01,3.53E-01
2.16E+09,-4.32E-01,3.78E-01
2.16E+09,-4.24E-01,4.08E-01
2.17E+09,-3.97E-01,4.24E-01
2.17E+09,-3.76E-01,4.55E-01
2.18E+09,-3.52E-01,4.71E-01
2.18E+09,-3.30E-01,4.87E-01
2.18E+09,-3.07E-01,5.10E-01
2.19E+09,-2.77E-01,5.24E-01
2.19E+09,-2.63E-01,5.40E-01
2.20E+09,-2.36E-01,5.59E-01
2.20E+09,-1.98E-01,5.69E-01
2.21E+09,-1.69E-01,5.72E-01
2.21E+09,-1.40E-01,5.95E-01
2.21E+09,-1.02E-01,6.02E-01
2.22E+09,-7.54E-02,6.11E-01
2.22E+09,-4.12E-02,6.05E-01
2.23E+09,-2.64E-03,6.11E-01
2.23E+09,3.58E-02,6.11E-01
2.24E+09,6.62E-02,6.04E-01
2.24E+09,9.67E-02,6.10E-01
2.24E+09,1.35E-01,6.09E-01
2.25E+09,1.62E-01,5.99E-01
2.25E+09,1.96E-01,5.90E-01
2.26E+09,2.45E-01,5.68E-01
2.26E+09,2.67E-01,5.59E-01
2.27E+09,2.98E-01,5.42E-01
2.27E+09,3.31E-01,5.22E-01
2.27E+09,3.57E-01,5.07E-01
2.28E+09,3.81E-01,4.86E-01
2.28E+09,4.00E-01,4.61E-01
2.29E+09,4.22E-01,4.38E-01
2.29E+09,4.45E-01,4.06E-01
2.30E+09,4.58E-01,3.81E-01
2.30E+09,4.78E-01,3.55E-01
2.30E+09,5.02E-01,3.31E-01
2.31E+09,5.19E-01,3.00E-01
2.31E+09,5.27E-01,2.79E-01
2.32E+09,5.35E-01,2.50E-01
2.32E+09,5.37E-01,2.03E-01
2.33E+09,5.47E-01,1.75E-01
2.33E+09,5.60E-01,1.44E-01
2.33E+09,5.54E-01,1.00E-01
2.34E+09,5.67E-01,7.78E-02
2.34E+09,5.70E-01,4.45E-02
2.35E+09,5.54E-01,6.12E-03
2.35E+09,5.61E-01,-1.53E-02
2.36E+09,5.57E-01,-4.24E-02
2.36E+09,5.56E-01,-7.39E-02
2.36E+09,5.49E-01,-1.01E-01
2.37E+09,5.45E-01,-1.19E-01
2.37E+09,5.20E-01,-1.37E-01
2.38E+09,5.20E-01,-1.65E-01
2.38E+09,5.07E-01,-1.75E-01
2.39E+09,4.86E-01,-1.91E-01
2.39E+09,4.81E-01,-2.30E-01
2.39E+09,4.71E-01,-2.33E-01
2.40E+09,4.53E-01,-2.55E-01
2.40E+09,4.32E-01,-2.75E-01
2.41E+09,4.17E-01,-3.00E-01
2.41E+09,4.12E-01,-3.12E-01
2.41E+09,3.92E-01,-3.40E-01
2.42E+09,3.91E-01,-3.51E-01
2.42E+09,3.64E-01,-3.74E-01
2.43E+09,3.53E-01,-3.90E-01
2.43E+09,3.40E-01,-4.01E-01
2.44E+09,3.27E-01,-4.15E-01
2.44E+09,2.91E-01,-4.48E-01
2.44E+09,3.18E-01,-4.38E-01
2.45E+09,2.83E-01,-4.61E-01
2.45E+09,2.43E-01,-4.86E-01
2.46E+09,2.18E-01,-4.96E-01
2.46E+09,2.07E-01,-5.16E-01
2.47E+09,1.87E-01,-5.26E-01
2.47E+09,1.53E-01,-5.32E-01
2.47E+09,1.26E-01,-5.41E-01
2.48E+09,1.07E-01,-5.40E-01
2.48E+09,8.04E-02,-5.61E-01
2.49E+09,4.46E-02,-5.59E-01
2.49E+09,1.13E-02,-5.50E-01
2.50E+09,-3.19E-02,-5.58E-01
2.50E+09,-5.63E-02,-5.50E-01
2.50E+09,-1.01E-01,-5.39E-01
2.51E+09,-1.30E-01,-5.37E-01
2.51E+09,-1.51E-01,-5.28E-01
2.52E+09,-1.80E-01,-5.15E-01
2.52E+09,-2.07E-01,-4.94E-01
2.53E+09,-2.38E-01,-4.76E-01
2.53E+09,-2.63E-01,-4.57E-01
2.53E+09,-2.93E-01,-4.37E-01
2.54E+09,-3.10E-01,-4.23E-01
2.54E+09,-3.28E-01,-4.11E-01
2.55E+09,-3.39E-01,-3.82E-01
2.55E+09,-3.56E-01,-3.68E-01
2.56E+09,-3.69E-01,-3.47E-01
2.56E+09,-3.87E-01,-3.21E-01
2.56E+09,-3.92E-01,-2.94E-01
2.57E+09,-4.14E-01,-2.74E-01
2.57E+09,-4.23E-01,-2.38E-01
2.58E+09,-4.32E-01,-2.13E-01
2.58E+09,-4.36E-01,-1.74E-01
2.59E+09,-4.34E-01,-1.50E-01
2.59E+09,-4.46E-01,-1.22E-01
2.59E+09,-4.44E-01,-9.07E-02
2.60E+09,-4.41E-01,-7.06E-02
2.60E+09,-4.38E-01,-4.20E-02
2.61E+09,-4.39E-01,-2.09E-02
2.61E+09,-4.23E-01,-2.85E-05
2.62E+09,-4.35E-01,3.35E-02
2.62E+09,-4.08E-01,4.53E-02
2.62E+09,-4.14E-01,7.60E-02
2.63E+09,-3.97E-01,1.03E-01
2.63E+09,-3.95E-01,1.24E-01
2.64E+09,-3.92E-01,1.26E-01
2.64E+09,-3.66E-01,1.59E-01
2.65E+09,-3.43E-01,1.69E-01
2.65E+09,-3.27E-01,1.89E-01
2.65E+09,-3.13E-01,2.08E-01
2.66E+09,-2.90E-01,2.13E-01
2.66E+09,-2.73E-01,2.33E-01
2.67E+09,-2.60E-01,2.31E-01
2.67E+09,-2.43E-01,2.30E-01
2.68E+09,-2.27E-01,2.31E-01
2.68E+09,-2.06E-01,2.31E-01
2.68E+09,-1.93E-01,2.42E-01
2.69E+09,-1.70E-01,2.42E-01
2.69E+09,-1.63E-01,2.41E-01
2.70E+09,-1.42E-01,2.42E-01
2.70E+09,-1.34E-01,2.37E-01
2.71E+09,-1.27E-01,2.29E-01
2.71E+09,-1.13E-01,2.29E-01
2.71E+09,-1.06E-01,2.28E-01
2.72E+09,-1.00E-01,2.24E-01
2.72E+09,-1.02E-01,2.28E-01
2.73E+09,-9.74E-02,2.26E-01
2.73E+09,-9.14E-02,2.39E-01
2.73E+09,-9.54E-02,2.46E-01
2.74E+09,-8.12E-02,2.58E-01
2.74E+09,-8.10E-02,2.53E-01
2.75E+09,-5.41E-02,2.63E-01
2.75E+09,-4.69E-02,2.74E-01
2.76E+09,-2.90E-02,2.80E-01
2.76E+09,-7.45E-03,2.76E-01
2.76E+09,3.14E-03,2.75E-01
2.77E+09,3.28E-02,2.83E-01
2.77E+09,4.66E-02,2.82E-01
2.78E+09,6.54E-02,2.72E-01
2.78E+09,9.29E-02,2.68E-01
2.79E+09,1.03E-01,2.54E-01
2.79E+09,1.19E-01,2.50E-01
2.79E+09,1.40E-01,2.31E-01
2.80E+09,1.55E-01,2.20E-01
2.80E+09,1.60E-01,2.01E-01
2.81E+09,1.77E-01,1.95E-01
2.81E+09,1.87E-01,1.80E-01
2.82E+09,1.84E-01,1.76E-01
2.82E+09,2.01E-01,1.57E-01
2.82E+09,2.06E-01,1.47E-01
2.83E+09,2.19E-01,1.27E-01
2.83E+09,2.39E-01,1.18E-01
2.84E+09,2.27E-01,1.00E-01
2.84E+09,2.37E-01,8.34E-02
2.85E+09,2.43E-01,6.71E-02
2.85E+09,2.34E-01,4.28E-02
2.85E+09,2.32E-01,2.50E-02
2.86E+09,2.28E-01,7.51E-03
2.86E+09,2.26E-01,-1.47E-03
2.87E+09,2.21E-01,-2.13E-02
2.87E+09,2.10E-01,-4.04E-02
2.88E+09,1.97E-01,-4.49E-02
2.88E+09,1.86E-01,-5.71E-02
2.88E+09,1.82E-01,-6.20E-02
2.89E+09,1.65E-01,-6.35E-02
2.89E+09,1.53E-01,-7.39E-02
2.90E+09,1.44E-01,-7.84E-02
2.90E+09,1.41E-01,-7.63E-02
2.91E+09,1.24E-01,-8.40E-02
2.91E+09,1.19E-01,-8.35E-02
2.91E+09,1.09E-01,-8.20E-02
2.92E+09,9.41E-02,-7.04E-02
2.92E+09,8.75E-02,-7.73E-02
2.93E+09,7.04E-02,-6.51E-02
2.93E+09,5.80E-02,-6.76E-02
2.94E+09,5.90E-02,-5.68E-02
2.94E+09,5.35E-02,-4.77E-02
2.94E+09,4.63E-02,-3.96E-02
2.95E+09,4.61E-02,-2.10E-02
2.95E+09,5.63E-02,-1.73E-02
2.96E+09,6.11E-02,-2.05E-02
2.96E+09,5.62E-02,-1.36E-02
2.97E+09,5.60E-02,-7.98E-03
2.97E+09,5.58E-02,-1.51E-02
2.97E+09,6.73E-02,-2.61E-03
2.98E+09,6.59E-02,-1.10E-03
2.98E+09,7.75E-02,6.74E-03
2.99E+09,7.57E-02,3.89E-03
2.99E+09,7.76E-02,1.33E-02
3.00E+09,7.78E-02,1.26E-02
3.00E+09,9.47E-02,1.30E-02
3.00E+09,1.00E-01,1.95E-02
3.01E+09,1.11E-01,9.03E-03
3.01E+09,1.21E-01,-1.45E-03
